#istep,min(u),max(u),min(v),max(v)
#  
0.000e+00 -3.070e+01 8.400e+00 -7.302e+00 8.039e+00
1.000e+00 -6.008e+01 1.648e+01 -1.266e+01 1.544e+01
2.000e+00 -8.837e+01 2.447e+01 -1.701e+01 2.345e+01
3.000e+00 -1.161e+02 3.247e+01 -2.048e+01 3.247e+01
4.000e+00 -1.442e+02 4.086e+01 -2.324e+01 4.281e+01
5.000e+00 -1.730e+02 4.965e+01 -2.538e+01 5.476e+01
6.000e+00 -2.029e+02 5.905e+01 -2.721e+01 6.860e+01
7.000e+00 -2.341e+02 6.912e+01 -2.971e+01 8.461e+01
8.000e+00 -2.669e+02 8.014e+01 -3.307e+01 1.031e+02
9.000e+00 -3.014e+02 9.239e+01 -3.721e+01 1.243e+02
1.000e+01 -3.375e+02 1.057e+02 -4.215e+01 1.484e+02
1.100e+01 -3.750e+02 1.203e+02 -4.786e+01 1.756e+02
1.200e+01 -4.136e+02 1.360e+02 -5.436e+01 2.061e+02
1.300e+01 -4.531e+02 1.529e+02 -6.159e+01 2.399e+02
1.400e+01 -4.935e+02 1.710e+02 -6.951e+01 2.769e+02
1.500e+01 -5.338e+02 1.901e+02 -7.800e+01 3.169e+02
1.600e+01 -5.734e+02 2.105e+02 -8.701e+01 3.597e+02
1.700e+01 -6.126e+02 2.313e+02 -9.641e+01 4.049e+02
1.800e+01 -6.496e+02 2.533e+02 -1.060e+02 4.517e+02
1.900e+01 -6.847e+02 2.753e+02 -1.155e+02 4.997e+02
2.000e+01 -7.175e+02 2.971e+02 -1.250e+02 5.481e+02
2.100e+01 -7.465e+02 3.187e+02 -1.339e+02 5.959e+02
2.200e+01 -7.719e+02 3.386e+02 -1.424e+02 6.423e+02
2.300e+01 -7.941e+02 3.563e+02 -1.506e+02 6.866e+02
2.400e+01 -8.118e+02 3.726e+02 -1.581e+02 7.278e+02
2.500e+01 -8.249e+02 3.891e+02 -1.648e+02 7.651e+02
2.600e+01 -8.335e+02 4.026e+02 -1.704e+02 7.978e+02
2.700e+01 -8.379e+02 4.123e+02 -1.750e+02 8.255e+02
2.800e+01 -8.385e+02 4.177e+02 -1.787e+02 8.477e+02
2.900e+01 -8.355e+02 4.218e+02 -1.821e+02 8.640e+02
3.000e+01 -8.297e+02 4.252e+02 -1.850e+02 8.747e+02
3.100e+01 -8.216e+02 4.255e+02 -1.870e+02 8.803e+02
3.200e+01 -8.117e+02 4.227e+02 -1.886e+02 8.828e+02
3.300e+01 -8.005e+02 4.166e+02 -1.896e+02 8.815e+02
3.400e+01 -7.883e+02 4.128e+02 -1.901e+02 8.772e+02
3.500e+01 -7.754e+02 4.089e+02 -1.906e+02 8.705e+02
3.600e+01 -7.623e+02 4.029e+02 -1.905e+02 8.621e+02
3.700e+01 -7.490e+02 3.961e+02 -1.905e+02 8.526e+02
3.800e+01 -7.363e+02 3.892e+02 -1.905e+02 8.425e+02
3.900e+01 -7.237e+02 3.807e+02 -1.902e+02 8.323e+02
4.000e+01 -7.113e+02 3.731e+02 -1.896e+02 8.222e+02
4.100e+01 -6.994e+02 3.678e+02 -1.892e+02 8.127e+02
4.200e+01 -6.878e+02 3.621e+02 -1.882e+02 8.038e+02
4.300e+01 -6.768e+02 3.564e+02 -1.875e+02 7.958e+02
4.400e+01 -6.662e+02 3.499e+02 -1.865e+02 7.886e+02
4.500e+01 -6.563e+02 3.438e+02 -1.853e+02 7.823e+02
4.600e+01 -6.472e+02 3.380e+02 -1.844e+02 7.769e+02
4.700e+01 -6.386e+02 3.319e+02 -1.830e+02 7.723e+02
4.800e+01 -6.307e+02 3.252e+02 -1.819e+02 7.685e+02
4.900e+01 -6.237e+02 3.194e+02 -1.807e+02 7.652e+02
5.000e+01 -6.171e+02 3.140e+02 -1.793e+02 7.624e+02
5.100e+01 -6.108e+02 3.092e+02 -1.783e+02 7.600e+02
5.200e+01 -6.047e+02 3.052e+02 -1.770e+02 7.578e+02
5.300e+01 -5.992e+02 3.008e+02 -1.757e+02 7.558e+02
5.400e+01 -5.942e+02 2.957e+02 -1.746e+02 7.539e+02
5.500e+01 -5.893e+02 2.916e+02 -1.732e+02 7.519e+02
5.600e+01 -5.844e+02 2.870e+02 -1.721e+02 7.498e+02
5.700e+01 -5.796e+02 2.830e+02 -1.710e+02 7.475e+02
5.800e+01 -5.748e+02 2.790e+02 -1.698e+02 7.450e+02
5.900e+01 -5.700e+02 2.744e+02 -1.686e+02 7.423e+02
6.000e+01 -5.652e+02 2.698e+02 -1.675e+02 7.393e+02
6.100e+01 -5.605e+02 2.660e+02 -1.664e+02 7.361e+02
6.200e+01 -5.557e+02 2.616e+02 -1.654e+02 7.326e+02
6.300e+01 -5.510e+02 2.579e+02 -1.643e+02 7.288e+02
6.400e+01 -5.463e+02 2.544e+02 -1.632e+02 7.249e+02
6.500e+01 -5.416e+02 2.519e+02 -1.622e+02 7.208e+02
6.600e+01 -5.371e+02 2.489e+02 -1.612e+02 7.165e+02
6.700e+01 -5.326e+02 2.456e+02 -1.603e+02 7.122e+02
6.800e+01 -5.285e+02 2.422e+02 -1.593e+02 7.078e+02
6.900e+01 -5.245e+02 2.394e+02 -1.584e+02 7.033e+02
7.000e+01 -5.205e+02 2.364e+02 -1.576e+02 6.989e+02
7.100e+01 -5.167e+02 2.332e+02 -1.567e+02 6.946e+02
7.200e+01 -5.131e+02 2.308e+02 -1.557e+02 6.903e+02
7.300e+01 -5.095e+02 2.280e+02 -1.551e+02 6.862e+02
7.400e+01 -5.061e+02 2.249e+02 -1.544e+02 6.821e+02
7.500e+01 -5.028e+02 2.217e+02 -1.535e+02 6.782e+02
7.600e+01 -4.997e+02 2.190e+02 -1.528e+02 6.744e+02
7.700e+01 -4.966e+02 2.164e+02 -1.523e+02 6.708e+02
7.800e+01 -4.937e+02 2.135e+02 -1.516e+02 6.673e+02
7.900e+01 -4.909e+02 2.110e+02 -1.510e+02 6.640e+02
8.000e+01 -4.883e+02 2.135e+02 -1.504e+02 6.608e+02
8.100e+01 -4.857e+02 2.227e+02 -1.500e+02 6.577e+02
8.200e+01 -4.831e+02 2.320e+02 -1.495e+02 6.548e+02
8.300e+01 -4.807e+02 2.414e+02 -1.490e+02 6.519e+02
8.400e+01 -4.783e+02 2.507e+02 -1.486e+02 6.492e+02
8.500e+01 -4.760e+02 2.612e+02 -1.483e+02 6.465e+02
8.600e+01 -4.737e+02 2.717e+02 -1.480e+02 6.439e+02
8.700e+01 -4.715e+02 2.822e+02 -1.477e+02 6.413e+02
8.800e+01 -4.693e+02 2.926e+02 -1.476e+02 6.387e+02
8.900e+01 -4.671e+02 3.034e+02 -1.474e+02 6.362e+02
9.000e+01 -4.650e+02 3.149e+02 -1.474e+02 6.337e+02
9.100e+01 -4.628e+02 3.261e+02 -1.476e+02 6.312e+02
9.200e+01 -4.607e+02 3.368e+02 -1.477e+02 6.286e+02
9.300e+01 -4.586e+02 3.469e+02 -1.477e+02 6.261e+02
9.400e+01 -4.564e+02 3.578e+02 -1.479e+02 6.235e+02
9.500e+01 -4.543e+02 3.681e+02 -1.483e+02 6.210e+02
9.600e+01 -4.522e+02 3.772e+02 -1.486e+02 6.184e+02
9.700e+01 -4.502e+02 3.851e+02 -1.490e+02 6.158e+02
9.800e+01 -4.481e+02 3.915e+02 -1.495e+02 6.132e+02
9.900e+01 -4.460e+02 3.964e+02 -1.501e+02 6.106e+02
1.000e+02 -4.440e+02 3.998e+02 -1.508e+02 6.080e+02
1.010e+02 -4.420e+02 4.017e+02 -1.514e+02 6.053e+02
1.020e+02 -4.399e+02 4.022e+02 -1.520e+02 6.027e+02
1.030e+02 -4.379e+02 4.016e+02 -1.526e+02 6.001e+02
1.040e+02 -4.360e+02 3.997e+02 -1.533e+02 5.975e+02
1.050e+02 -4.340e+02 3.967e+02 -1.538e+02 5.950e+02
1.060e+02 -4.321e+02 3.929e+02 -1.542e+02 5.924e+02
1.070e+02 -4.302e+02 3.888e+02 -1.545e+02 5.899e+02
1.080e+02 -4.284e+02 3.843e+02 -1.548e+02 5.874e+02
1.090e+02 -4.265e+02 3.797e+02 -1.551e+02 5.850e+02
1.100e+02 -4.247e+02 3.749e+02 -1.552e+02 5.826e+02
1.110e+02 -4.229e+02 3.702e+02 -1.553e+02 5.802e+02
1.120e+02 -4.212e+02 3.655e+02 -1.552e+02 5.779e+02
1.130e+02 -4.195e+02 3.610e+02 -1.551e+02 5.757e+02
1.140e+02 -4.178e+02 3.565e+02 -1.550e+02 5.734e+02
1.150e+02 -4.161e+02 3.523e+02 -1.547e+02 5.712e+02
1.160e+02 -4.144e+02 3.482e+02 -1.545e+02 5.691e+02
1.170e+02 -4.128e+02 3.444e+02 -1.542e+02 5.670e+02
1.180e+02 -4.112e+02 3.407e+02 -1.539e+02 5.649e+02
1.190e+02 -4.096e+02 3.371e+02 -1.535e+02 5.629e+02
1.200e+02 -4.080e+02 3.338e+02 -1.531e+02 5.609e+02
1.210e+02 -4.065e+02 3.306e+02 -1.527e+02 5.589e+02
1.220e+02 -4.050e+02 3.276e+02 -1.523e+02 5.569e+02
1.230e+02 -4.035e+02 3.248e+02 -1.519e+02 5.550e+02
1.240e+02 -4.020e+02 3.221e+02 -1.515e+02 5.531e+02
1.250e+02 -4.006e+02 3.196e+02 -1.511e+02 5.512e+02
1.260e+02 -3.993e+02 3.172e+02 -1.507e+02 5.494e+02
1.270e+02 -3.980e+02 3.149e+02 -1.503e+02 5.476e+02
1.280e+02 -3.967e+02 3.128e+02 -1.500e+02 5.458e+02
1.290e+02 -3.954e+02 3.108e+02 -1.496e+02 5.441e+02
1.300e+02 -3.942e+02 3.089e+02 -1.492e+02 5.424e+02
1.310e+02 -3.930e+02 3.071e+02 -1.489e+02 5.407e+02
1.320e+02 -3.918e+02 3.055e+02 -1.486e+02 5.391e+02
1.330e+02 -3.906e+02 3.040e+02 -1.483e+02 5.375e+02
1.340e+02 -3.895e+02 3.026e+02 -1.481e+02 5.359e+02
1.350e+02 -3.884e+02 3.014e+02 -1.478e+02 5.344e+02
1.360e+02 -3.874e+02 3.002e+02 -1.476e+02 5.330e+02
1.370e+02 -3.864e+02 2.992e+02 -1.475e+02 5.316e+02
1.380e+02 -3.854e+02 2.982e+02 -1.473e+02 5.303e+02
1.390e+02 -3.845e+02 2.974e+02 -1.472e+02 5.290e+02
1.400e+02 -3.836e+02 2.967e+02 -1.471e+02 5.278e+02
1.410e+02 -3.828e+02 2.961e+02 -1.471e+02 5.267e+02
1.420e+02 -3.820e+02 2.955e+02 -1.470e+02 5.256e+02
1.430e+02 -3.813e+02 2.951e+02 -1.470e+02 5.246e+02
1.440e+02 -3.806e+02 2.948e+02 -1.470e+02 5.237e+02
1.450e+02 -3.799e+02 2.946e+02 -1.471e+02 5.228e+02
1.460e+02 -3.793e+02 2.945e+02 -1.471e+02 5.221e+02
1.470e+02 -3.788e+02 2.944e+02 -1.472e+02 5.214e+02
1.480e+02 -3.783e+02 2.944e+02 -1.473e+02 5.208e+02
1.490e+02 -3.778e+02 2.945e+02 -1.474e+02 5.202e+02
1.500e+02 -3.774e+02 2.946e+02 -1.475e+02 5.197e+02
1.510e+02 -3.770e+02 2.948e+02 -1.477e+02 5.193e+02
1.520e+02 -3.767e+02 2.950e+02 -1.479e+02 5.190e+02
1.530e+02 -3.764e+02 2.953e+02 -1.481e+02 5.187e+02
1.540e+02 -3.762e+02 2.956e+02 -1.483e+02 5.185e+02
1.550e+02 -3.760e+02 2.959e+02 -1.485e+02 5.183e+02
1.560e+02 -3.758e+02 2.963e+02 -1.487e+02 5.183e+02
1.570e+02 -3.756e+02 2.967e+02 -1.490e+02 5.182e+02
1.580e+02 -3.755e+02 2.972e+02 -1.493e+02 5.182e+02
1.590e+02 -3.754e+02 2.976e+02 -1.495e+02 5.183e+02
1.600e+02 -3.754e+02 2.981e+02 -1.498e+02 5.184e+02
1.610e+02 -3.754e+02 2.986e+02 -1.501e+02 5.186e+02
1.620e+02 -3.754e+02 2.991e+02 -1.505e+02 5.188e+02
1.630e+02 -3.754e+02 2.996e+02 -1.508e+02 5.191e+02
1.640e+02 -3.754e+02 3.001e+02 -1.511e+02 5.194e+02
1.650e+02 -3.755e+02 3.006e+02 -1.515e+02 5.197e+02
1.660e+02 -3.756e+02 3.011e+02 -1.518e+02 5.200e+02
1.670e+02 -3.757e+02 3.016e+02 -1.522e+02 5.204e+02
1.680e+02 -3.758e+02 3.021e+02 -1.525e+02 5.208e+02
1.690e+02 -3.759e+02 3.026e+02 -1.529e+02 5.212e+02
1.700e+02 -3.761e+02 3.031e+02 -1.533e+02 5.217e+02
1.710e+02 -3.762e+02 3.036e+02 -1.538e+02 5.222e+02
1.720e+02 -3.764e+02 3.040e+02 -1.542e+02 5.226e+02
1.730e+02 -3.766e+02 3.045e+02 -1.546e+02 5.231e+02
1.740e+02 -3.767e+02 3.049e+02 -1.551e+02 5.237e+02
1.750e+02 -3.769e+02 3.054e+02 -1.555e+02 5.242e+02
1.760e+02 -3.771e+02 3.058e+02 -1.559e+02 5.247e+02
1.770e+02 -3.773e+02 3.062e+02 -1.564e+02 5.253e+02
1.780e+02 -3.776e+02 3.066e+02 -1.569e+02 5.259e+02
1.790e+02 -3.778e+02 3.071e+02 -1.573e+02 5.264e+02
1.800e+02 -3.780e+02 3.075e+02 -1.578e+02 5.270e+02
1.810e+02 -3.782e+02 3.079e+02 -1.583e+02 5.276e+02
1.820e+02 -3.785e+02 3.083e+02 -1.587e+02 5.282e+02
1.830e+02 -3.787e+02 3.086e+02 -1.592e+02 5.288e+02
1.840e+02 -3.790e+02 3.090e+02 -1.597e+02 5.294e+02
1.850e+02 -3.792e+02 3.093e+02 -1.602e+02 5.301e+02
1.860e+02 -3.795e+02 3.097e+02 -1.607e+02 5.307e+02
1.870e+02 -3.797e+02 3.100e+02 -1.612e+02 5.313e+02
1.880e+02 -3.800e+02 3.103e+02 -1.617e+02 5.320e+02
1.890e+02 -3.803e+02 3.106e+02 -1.622e+02 5.326e+02
1.900e+02 -3.806e+02 3.109e+02 -1.627e+02 5.332e+02
1.910e+02 -3.808e+02 3.112e+02 -1.632e+02 5.339e+02
1.920e+02 -3.811e+02 3.114e+02 -1.637e+02 5.345e+02
1.930e+02 -3.814e+02 3.117e+02 -1.643e+02 5.352e+02
1.940e+02 -3.817e+02 3.120e+02 -1.648e+02 5.359e+02
1.950e+02 -3.820e+02 3.122e+02 -1.654e+02 5.365e+02
1.960e+02 -3.823e+02 3.124e+02 -1.660e+02 5.372e+02
1.970e+02 -3.825e+02 3.127e+02 -1.666e+02 5.379e+02
1.980e+02 -3.828e+02 3.129e+02 -1.672e+02 5.385e+02
1.990e+02 -3.831e+02 3.131e+02 -1.678e+02 5.392e+02
2.000e+02 -3.835e+02 3.133e+02 -1.684e+02 5.399e+02
2.010e+02 -3.838e+02 3.135e+02 -1.690e+02 5.406e+02
2.020e+02 -3.841e+02 3.137e+02 -1.696e+02 5.413e+02
2.030e+02 -3.844e+02 3.139e+02 -1.702e+02 5.420e+02
2.040e+02 -3.847e+02 3.141e+02 -1.708e+02 5.429e+02
2.050e+02 -3.850e+02 3.143e+02 -1.714e+02 5.437e+02
2.060e+02 -3.854e+02 3.145e+02 -1.720e+02 5.445e+02
2.070e+02 -3.857e+02 3.146e+02 -1.726e+02 5.454e+02
2.080e+02 -3.861e+02 3.148e+02 -1.732e+02 5.462e+02
2.090e+02 -3.864e+02 3.150e+02 -1.739e+02 5.471e+02
2.100e+02 -3.868e+02 3.152e+02 -1.745e+02 5.480e+02
2.110e+02 -3.872e+02 3.154e+02 -1.751e+02 5.488e+02
2.120e+02 -3.876e+02 3.155e+02 -1.757e+02 5.497e+02
2.130e+02 -3.880e+02 3.157e+02 -1.763e+02 5.507e+02
2.140e+02 -3.884e+02 3.159e+02 -1.770e+02 5.516e+02
2.150e+02 -3.888e+02 3.161e+02 -1.776e+02 5.525e+02
2.160e+02 -3.893e+02 3.163e+02 -1.782e+02 5.535e+02
2.170e+02 -3.897e+02 3.164e+02 -1.789e+02 5.545e+02
2.180e+02 -3.902e+02 3.166e+02 -1.795e+02 5.555e+02
2.190e+02 -3.907e+02 3.168e+02 -1.801e+02 5.566e+02
2.200e+02 -3.912e+02 3.170e+02 -1.808e+02 5.576e+02
2.210e+02 -3.917e+02 3.172e+02 -1.814e+02 5.587e+02
2.220e+02 -3.923e+02 3.174e+02 -1.820e+02 5.598e+02
2.230e+02 -3.928e+02 3.176e+02 -1.827e+02 5.610e+02
2.240e+02 -3.934e+02 3.178e+02 -1.833e+02 5.621e+02
2.250e+02 -3.940e+02 3.180e+02 -1.839e+02 5.633e+02
2.260e+02 -3.947e+02 3.183e+02 -1.846e+02 5.646e+02
2.270e+02 -3.953e+02 3.185e+02 -1.852e+02 5.658e+02
2.280e+02 -3.960e+02 3.187e+02 -1.858e+02 5.671e+02
2.290e+02 -3.967e+02 3.190e+02 -1.865e+02 5.684e+02
2.300e+02 -3.974e+02 3.192e+02 -1.871e+02 5.698e+02
2.310e+02 -3.981e+02 3.194e+02 -1.878e+02 5.712e+02
2.320e+02 -3.989e+02 3.197e+02 -1.884e+02 5.726e+02
2.330e+02 -3.997e+02 3.199e+02 -1.891e+02 5.740e+02
2.340e+02 -4.005e+02 3.202e+02 -1.897e+02 5.755e+02
2.350e+02 -4.013e+02 3.205e+02 -1.904e+02 5.770e+02
2.360e+02 -4.022e+02 3.207e+02 -1.910e+02 5.786e+02
2.370e+02 -4.030e+02 3.210e+02 -1.917e+02 5.801e+02
2.380e+02 -4.039e+02 3.213e+02 -1.923e+02 5.817e+02
2.390e+02 -4.048e+02 3.216e+02 -1.929e+02 5.833e+02
2.400e+02 -4.057e+02 3.219e+02 -1.936e+02 5.850e+02
2.410e+02 -4.067e+02 3.222e+02 -1.942e+02 5.866e+02
2.420e+02 -4.076e+02 3.225e+02 -1.948e+02 5.883e+02
2.430e+02 -4.086e+02 3.228e+02 -1.955e+02 5.900e+02
2.440e+02 -4.096e+02 3.231e+02 -1.961e+02 5.918e+02
2.450e+02 -4.107e+02 3.234e+02 -1.967e+02 5.935e+02
2.460e+02 -4.118e+02 3.237e+02 -1.973e+02 5.953e+02
2.470e+02 -4.129e+02 3.240e+02 -1.979e+02 5.970e+02
2.480e+02 -4.141e+02 3.244e+02 -1.985e+02 5.988e+02
2.490e+02 -4.152e+02 3.247e+02 -1.991e+02 6.007e+02
2.500e+02 -4.164e+02 3.250e+02 -1.996e+02 6.026e+02
2.510e+02 -4.175e+02 3.253e+02 -2.002e+02 6.046e+02
2.520e+02 -4.187e+02 3.257e+02 -2.008e+02 6.066e+02
2.530e+02 -4.199e+02 3.260e+02 -2.013e+02 6.085e+02
2.540e+02 -4.211e+02 3.263e+02 -2.019e+02 6.105e+02
2.550e+02 -4.223e+02 3.267e+02 -2.024e+02 6.125e+02
2.560e+02 -4.235e+02 3.270e+02 -2.029e+02 6.144e+02
2.570e+02 -4.247e+02 3.273e+02 -2.034e+02 6.164e+02
2.580e+02 -4.259e+02 3.276e+02 -2.039e+02 6.184e+02
2.590e+02 -4.272e+02 3.280e+02 -2.044e+02 6.204e+02
2.600e+02 -4.284e+02 3.283e+02 -2.049e+02 6.224e+02
2.610e+02 -4.296e+02 3.286e+02 -2.054e+02 6.244e+02
2.620e+02 -4.309e+02 3.289e+02 -2.058e+02 6.264e+02
2.630e+02 -4.321e+02 3.292e+02 -2.063e+02 6.284e+02
2.640e+02 -4.334e+02 3.295e+02 -2.067e+02 6.304e+02
2.650e+02 -4.347e+02 3.298e+02 -2.071e+02 6.324e+02
2.660e+02 -4.360e+02 3.300e+02 -2.076e+02 6.344e+02
2.670e+02 -4.372e+02 3.303e+02 -2.080e+02 6.364e+02
2.680e+02 -4.385e+02 3.306e+02 -2.083e+02 6.384e+02
2.690e+02 -4.398e+02 3.308e+02 -2.087e+02 6.404e+02
2.700e+02 -4.411e+02 3.311e+02 -2.091e+02 6.424e+02
2.710e+02 -4.424e+02 3.313e+02 -2.094e+02 6.444e+02
2.720e+02 -4.437e+02 3.316e+02 -2.098e+02 6.463e+02
2.730e+02 -4.450e+02 3.318e+02 -2.101e+02 6.483e+02
2.740e+02 -4.463e+02 3.320e+02 -2.104e+02 6.503e+02
2.750e+02 -4.476e+02 3.322e+02 -2.107e+02 6.523e+02
2.760e+02 -4.489e+02 3.324e+02 -2.110e+02 6.542e+02
2.770e+02 -4.502e+02 3.326e+02 -2.113e+02 6.562e+02
2.780e+02 -4.515e+02 3.328e+02 -2.116e+02 6.581e+02
2.790e+02 -4.527e+02 3.329e+02 -2.119e+02 6.600e+02
2.800e+02 -4.540e+02 3.331e+02 -2.121e+02 6.620e+02
2.810e+02 -4.553e+02 3.332e+02 -2.124e+02 6.638e+02
2.820e+02 -4.566e+02 3.334e+02 -2.126e+02 6.657e+02
2.830e+02 -4.578e+02 3.335e+02 -2.128e+02 6.676e+02
2.840e+02 -4.591e+02 3.336e+02 -2.131e+02 6.694e+02
2.850e+02 -4.603e+02 3.337e+02 -2.133e+02 6.712e+02
2.860e+02 -4.616e+02 3.339e+02 -2.135e+02 6.730e+02
2.870e+02 -4.628e+02 3.340e+02 -2.137e+02 6.748e+02
2.880e+02 -4.640e+02 3.341e+02 -2.139e+02 6.765e+02
2.890e+02 -4.651e+02 3.342e+02 -2.141e+02 6.782e+02
2.900e+02 -4.663e+02 3.342e+02 -2.143e+02 6.799e+02
2.910e+02 -4.674e+02 3.343e+02 -2.145e+02 6.815e+02
2.920e+02 -4.685e+02 3.344e+02 -2.147e+02 6.831e+02
2.930e+02 -4.696e+02 3.345e+02 -2.149e+02 6.846e+02
2.940e+02 -4.707e+02 3.345e+02 -2.151e+02 6.861e+02
2.950e+02 -4.717e+02 3.346e+02 -2.152e+02 6.876e+02
2.960e+02 -4.727e+02 3.347e+02 -2.154e+02 6.890e+02
2.970e+02 -4.736e+02 3.347e+02 -2.156e+02 6.903e+02
2.980e+02 -4.746e+02 3.348e+02 -2.158e+02 6.916e+02
2.990e+02 -4.754e+02 3.349e+02 -2.159e+02 6.928e+02
3.000e+02 -4.763e+02 3.349e+02 -2.161e+02 6.940e+02
3.010e+02 -4.771e+02 3.350e+02 -2.163e+02 6.951e+02
3.020e+02 -4.779e+02 3.350e+02 -2.165e+02 6.962e+02
3.030e+02 -4.786e+02 3.351e+02 -2.166e+02 6.973e+02
3.040e+02 -4.793e+02 3.351e+02 -2.168e+02 6.982e+02
3.050e+02 -4.799e+02 3.352e+02 -2.170e+02 6.991e+02
3.060e+02 -4.805e+02 3.353e+02 -2.171e+02 6.999e+02
3.070e+02 -4.810e+02 3.353e+02 -2.173e+02 7.006e+02
3.080e+02 -4.815e+02 3.354e+02 -2.175e+02 7.013e+02
3.090e+02 -4.820e+02 3.355e+02 -2.177e+02 7.018e+02
3.100e+02 -4.824e+02 3.355e+02 -2.178e+02 7.023e+02
3.110e+02 -4.827e+02 3.356e+02 -2.180e+02 7.027e+02
3.120e+02 -4.830e+02 3.357e+02 -2.182e+02 7.030e+02
3.130e+02 -4.832e+02 3.357e+02 -2.184e+02 7.033e+02
3.140e+02 -4.834e+02 3.358e+02 -2.185e+02 7.035e+02
3.150e+02 -4.836e+02 3.359e+02 -2.187e+02 7.035e+02
3.160e+02 -4.837e+02 3.360e+02 -2.189e+02 7.035e+02
3.170e+02 -4.837e+02 3.361e+02 -2.191e+02 7.035e+02
3.180e+02 -4.837e+02 3.362e+02 -2.193e+02 7.033e+02
3.190e+02 -4.837e+02 3.363e+02 -2.195e+02 7.031e+02
3.200e+02 -4.836e+02 3.364e+02 -2.196e+02 7.028e+02
3.210e+02 -4.835e+02 3.365e+02 -2.198e+02 7.024e+02
3.220e+02 -4.833e+02 3.366e+02 -2.200e+02 7.020e+02
3.230e+02 -4.831e+02 3.367e+02 -2.202e+02 7.015e+02
3.240e+02 -4.829e+02 3.368e+02 -2.204e+02 7.009e+02
3.250e+02 -4.826e+02 3.370e+02 -2.206e+02 7.003e+02
3.260e+02 -4.823e+02 3.371e+02 -2.208e+02 6.997e+02
3.270e+02 -4.820e+02 3.372e+02 -2.210e+02 6.990e+02
3.280e+02 -4.816e+02 3.373e+02 -2.212e+02 6.982e+02
3.290e+02 -4.813e+02 3.375e+02 -2.214e+02 6.974e+02
3.300e+02 -4.809e+02 3.376e+02 -2.216e+02 6.966e+02
3.310e+02 -4.805e+02 3.378e+02 -2.217e+02 6.958e+02
3.320e+02 -4.801e+02 3.379e+02 -2.219e+02 6.949e+02
3.330e+02 -4.797e+02 3.381e+02 -2.221e+02 6.940e+02
3.340e+02 -4.793e+02 3.382e+02 -2.223e+02 6.931e+02
3.350e+02 -4.789e+02 3.384e+02 -2.225e+02 6.922e+02
3.360e+02 -4.785e+02 3.385e+02 -2.227e+02 6.914e+02
3.370e+02 -4.781e+02 3.387e+02 -2.229e+02 6.905e+02
3.380e+02 -4.777e+02 3.388e+02 -2.231e+02 6.896e+02
3.390e+02 -4.773e+02 3.390e+02 -2.233e+02 6.887e+02
3.400e+02 -4.769e+02 3.392e+02 -2.236e+02 6.878e+02
3.410e+02 -4.765e+02 3.393e+02 -2.238e+02 6.870e+02
3.420e+02 -4.761e+02 3.395e+02 -2.240e+02 6.862e+02
3.430e+02 -4.758e+02 3.397e+02 -2.242e+02 6.853e+02
3.440e+02 -4.754e+02 3.398e+02 -2.244e+02 6.846e+02
3.450e+02 -4.751e+02 3.400e+02 -2.246e+02 6.838e+02
3.460e+02 -4.748e+02 3.402e+02 -2.248e+02 6.831e+02
3.470e+02 -4.744e+02 3.403e+02 -2.250e+02 6.824e+02
3.480e+02 -4.741e+02 3.405e+02 -2.252e+02 6.817e+02
3.490e+02 -4.739e+02 3.407e+02 -2.254e+02 6.810e+02
3.500e+02 -4.736e+02 3.409e+02 -2.257e+02 6.804e+02
3.510e+02 -4.733e+02 3.410e+02 -2.259e+02 6.798e+02
3.520e+02 -4.731e+02 3.412e+02 -2.261e+02 6.792e+02
3.530e+02 -4.728e+02 3.414e+02 -2.264e+02 6.787e+02
3.540e+02 -4.726e+02 3.415e+02 -2.266e+02 6.782e+02
3.550e+02 -4.723e+02 3.417e+02 -2.268e+02 6.777e+02
3.560e+02 -4.721e+02 3.418e+02 -2.270e+02 6.772e+02
3.570e+02 -4.719e+02 3.420e+02 -2.273e+02 6.768e+02
3.580e+02 -4.717e+02 3.422e+02 -2.275e+02 6.763e+02
3.590e+02 -4.715e+02 3.423e+02 -2.277e+02 6.759e+02
3.600e+02 -4.713e+02 3.425e+02 -2.280e+02 6.755e+02
3.610e+02 -4.711e+02 3.426e+02 -2.282e+02 6.751e+02
3.620e+02 -4.709e+02 3.428e+02 -2.284e+02 6.747e+02
3.630e+02 -4.707e+02 3.429e+02 -2.287e+02 6.744e+02
3.640e+02 -4.705e+02 3.431e+02 -2.289e+02 6.740e+02
3.650e+02 -4.703e+02 3.432e+02 -2.292e+02 6.736e+02
3.660e+02 -4.701e+02 3.434e+02 -2.294e+02 6.733e+02
3.670e+02 -4.699e+02 3.435e+02 -2.296e+02 6.729e+02
3.680e+02 -4.697e+02 3.437e+02 -2.299e+02 6.726e+02
3.690e+02 -4.695e+02 3.438e+02 -2.301e+02 6.722e+02
3.700e+02 -4.693e+02 3.439e+02 -2.303e+02 6.719e+02
3.710e+02 -4.691e+02 3.441e+02 -2.306e+02 6.715e+02
3.720e+02 -4.688e+02 3.442e+02 -2.308e+02 6.712e+02
3.730e+02 -4.686e+02 3.443e+02 -2.311e+02 6.708e+02
3.740e+02 -4.684e+02 3.445e+02 -2.313e+02 6.705e+02
3.750e+02 -4.682e+02 3.446e+02 -2.316e+02 6.701e+02
3.760e+02 -4.680e+02 3.447e+02 -2.318e+02 6.698e+02
3.770e+02 -4.678e+02 3.449e+02 -2.320e+02 6.694e+02
3.780e+02 -4.676e+02 3.450e+02 -2.323e+02 6.691e+02
3.790e+02 -4.674e+02 3.451e+02 -2.325e+02 6.688e+02
3.800e+02 -4.672e+02 3.452e+02 -2.328e+02 6.684e+02
3.810e+02 -4.670e+02 3.453e+02 -2.330e+02 6.681e+02
3.820e+02 -4.668e+02 3.455e+02 -2.333e+02 6.678e+02
