#istep,min(u),max(u),min(v),max(v)
#  
0.000e+00 -3.070e+01 8.417e+00 -7.313e+00 8.045e+00
1.000e+00 -3.552e+01 9.701e+00 -8.201e+00 9.224e+00
2.000e+00 -4.096e+01 1.117e+01 -9.169e+00 1.060e+01
3.000e+00 -4.708e+01 1.284e+01 -1.022e+01 1.219e+01
4.000e+00 -5.398e+01 1.475e+01 -1.135e+01 1.406e+01
5.000e+00 -6.177e+01 1.693e+01 -1.255e+01 1.626e+01
6.000e+00 -7.060e+01 1.942e+01 -1.383e+01 1.887e+01
7.000e+00 -8.061e+01 2.227e+01 -1.516e+01 2.200e+01
8.000e+00 -9.195e+01 2.553e+01 -1.652e+01 2.576e+01
9.000e+00 -1.033e+02 2.883e+01 -1.773e+01 2.976e+01
1.000e+01 -1.148e+02 3.220e+01 -1.881e+01 3.404e+01
1.100e+01 -1.264e+02 3.566e+01 -1.975e+01 3.864e+01
1.200e+01 -1.383e+02 3.921e+01 -2.058e+01 4.359e+01
1.300e+01 -1.503e+02 4.286e+01 -2.130e+01 4.889e+01
1.400e+01 -1.626e+02 4.667e+01 -2.200e+01 5.458e+01
1.500e+01 -1.752e+02 5.061e+01 -2.287e+01 6.068e+01
1.600e+01 -1.881e+02 5.470e+01 -2.390e+01 6.721e+01
1.700e+01 -2.013e+02 5.893e+01 -2.511e+01 7.419e+01
1.800e+01 -2.149e+02 6.338e+01 -2.648e+01 8.167e+01
1.900e+01 -2.288e+02 6.799e+01 -2.802e+01 8.966e+01
2.000e+01 -2.430e+02 7.280e+01 -2.974e+01 9.816e+01
2.100e+01 -2.576e+02 7.779e+01 -3.162e+01 1.072e+02
2.200e+01 -2.725e+02 8.297e+01 -3.365e+01 1.168e+02
2.300e+01 -2.878e+02 8.842e+01 -3.585e+01 1.269e+02
2.400e+01 -3.034e+02 9.407e+01 -3.821e+01 1.377e+02
2.500e+01 -3.192e+02 9.993e+01 -4.073e+01 1.490e+02
2.600e+01 -3.354e+02 1.060e+02 -4.341e+01 1.609e+02
2.700e+01 -3.518e+02 1.123e+02 -4.624e+01 1.734e+02
2.800e+01 -3.684e+02 1.187e+02 -4.920e+01 1.865e+02
2.900e+01 -3.853e+02 1.255e+02 -5.231e+01 2.002e+02
3.000e+01 -4.023e+02 1.325e+02 -5.556e+01 2.145e+02
3.100e+01 -4.195e+02 1.397e+02 -5.893e+01 2.294e+02
3.200e+01 -4.368e+02 1.471e+02 -6.242e+01 2.449e+02
3.300e+01 -4.541e+02 1.547e+02 -6.604e+01 2.610e+02
3.400e+01 -4.715e+02 1.625e+02 -6.975e+01 2.776e+02
3.500e+01 -4.889e+02 1.705e+02 -7.357e+01 2.947e+02
3.600e+01 -5.062e+02 1.787e+02 -7.748e+01 3.124e+02
3.700e+01 -5.235e+02 1.870e+02 -8.147e+01 3.305e+02
3.800e+01 -5.406e+02 1.955e+02 -8.553e+01 3.490e+02
3.900e+01 -5.577e+02 2.042e+02 -8.966e+01 3.680e+02
4.000e+01 -5.744e+02 2.129e+02 -9.383e+01 3.873e+02
4.100e+01 -5.910e+02 2.219e+02 -9.803e+01 4.069e+02
4.200e+01 -6.072e+02 2.308e+02 -1.022e+02 4.268e+02
4.300e+01 -6.231e+02 2.399e+02 -1.065e+02 4.468e+02
4.400e+01 -6.387e+02 2.490e+02 -1.107e+02 4.671e+02
4.500e+01 -6.537e+02 2.581e+02 -1.150e+02 4.874e+02
4.600e+01 -6.685e+02 2.672e+02 -1.192e+02 5.078e+02
4.700e+01 -6.826e+02 2.761e+02 -1.234e+02 5.283e+02
4.800e+01 -6.962e+02 2.850e+02 -1.275e+02 5.488e+02
4.900e+01 -7.093e+02 2.938e+02 -1.316e+02 5.691e+02
5.000e+01 -7.219e+02 3.028e+02 -1.356e+02 5.892e+02
5.100e+01 -7.338e+02 3.116e+02 -1.394e+02 6.090e+02
5.200e+01 -7.449e+02 3.200e+02 -1.432e+02 6.285e+02
5.300e+01 -7.555e+02 3.282e+02 -1.470e+02 6.476e+02
5.400e+01 -7.655e+02 3.360e+02 -1.506e+02 6.663e+02
5.500e+01 -7.747e+02 3.435e+02 -1.541e+02 6.845e+02
5.600e+01 -7.831e+02 3.511e+02 -1.574e+02 7.021e+02
5.700e+01 -7.908e+02 3.584e+02 -1.605e+02 7.190e+02
5.800e+01 -7.978e+02 3.652e+02 -1.635e+02 7.354e+02
5.900e+01 -8.040e+02 3.714e+02 -1.664e+02 7.510e+02
6.000e+01 -8.096e+02 3.771e+02 -1.692e+02 7.658e+02
6.100e+01 -8.145e+02 3.829e+02 -1.718e+02 7.798e+02
6.200e+01 -8.186e+02 3.882e+02 -1.743e+02 7.931e+02
6.300e+01 -8.220e+02 3.929e+02 -1.765e+02 8.054e+02
6.400e+01 -8.247e+02 3.969e+02 -1.786e+02 8.169e+02
6.500e+01 -8.267e+02 4.007e+02 -1.807e+02 8.277e+02
6.600e+01 -8.281e+02 4.044e+02 -1.825e+02 8.376e+02
6.700e+01 -8.288e+02 4.074e+02 -1.842e+02 8.464e+02
6.800e+01 -8.290e+02 4.097e+02 -1.857e+02 8.543e+02
6.900e+01 -8.286e+02 4.113e+02 -1.871e+02 8.612e+02
7.000e+01 -8.277e+02 4.132e+02 -1.883e+02 8.672e+02
7.100e+01 -8.263e+02 4.146e+02 -1.895e+02 8.723e+02
7.200e+01 -8.245e+02 4.154e+02 -1.906e+02 8.766e+02
7.300e+01 -8.223e+02 4.156e+02 -1.916e+02 8.801e+02
7.400e+01 -8.197e+02 4.157e+02 -1.924e+02 8.828e+02
7.500e+01 -8.168e+02 4.157e+02 -1.931e+02 8.848e+02
7.600e+01 -8.137e+02 4.154e+02 -1.938e+02 8.861e+02
7.700e+01 -8.102e+02 4.145e+02 -1.943e+02 8.869e+02
7.800e+01 -8.065e+02 4.131e+02 -1.948e+02 8.870e+02
7.900e+01 -8.026e+02 4.120e+02 -1.953e+02 8.866e+02
8.000e+01 -7.985e+02 4.109e+02 -1.957e+02 8.857e+02
8.100e+01 -7.942e+02 4.092e+02 -1.961e+02 8.843e+02
8.200e+01 -7.899e+02 4.073e+02 -1.963e+02 8.825e+02
8.300e+01 -7.854e+02 4.050e+02 -1.965e+02 8.804e+02
8.400e+01 -7.809e+02 4.029e+02 -1.967e+02 8.781e+02
8.500e+01 -7.762e+02 4.009e+02 -1.968e+02 8.754e+02
8.600e+01 -7.714e+02 3.986e+02 -1.968e+02 8.726e+02
8.700e+01 -7.666e+02 3.962e+02 -1.969e+02 8.695e+02
8.800e+01 -7.618e+02 3.935e+02 -1.970e+02 8.662e+02
8.900e+01 -7.569e+02 3.907e+02 -1.969e+02 8.627e+02
9.000e+01 -7.520e+02 3.882e+02 -1.969e+02 8.591e+02
9.100e+01 -7.471e+02 3.856e+02 -1.968e+02 8.554e+02
9.200e+01 -7.423e+02 3.831e+02 -1.967e+02 8.517e+02
9.300e+01 -7.375e+02 3.803e+02 -1.965e+02 8.479e+02
9.400e+01 -7.326e+02 3.775e+02 -1.963e+02 8.440e+02
9.500e+01 -7.278e+02 3.746e+02 -1.962e+02 8.402e+02
9.600e+01 -7.230e+02 3.716e+02 -1.959e+02 8.364e+02
9.700e+01 -7.183e+02 3.690e+02 -1.957e+02 8.326e+02
9.800e+01 -7.136e+02 3.665e+02 -1.954e+02 8.288e+02
9.900e+01 -7.090e+02 3.638e+02 -1.951e+02 8.251e+02
1.000e+02 -7.044e+02 3.612e+02 -1.948e+02 8.215e+02
1.010e+02 -6.998e+02 3.585e+02 -1.946e+02 8.180e+02
1.020e+02 -6.953e+02 3.558e+02 -1.942e+02 8.145e+02
1.030e+02 -6.909e+02 3.530e+02 -1.939e+02 8.111e+02
1.040e+02 -6.866e+02 3.503e+02 -1.936e+02 8.079e+02
1.050e+02 -6.823e+02 3.477e+02 -1.932e+02 8.048e+02
1.060e+02 -6.780e+02 3.453e+02 -1.928e+02 8.017e+02
1.070e+02 -6.739e+02 3.428e+02 -1.924e+02 7.988e+02
1.080e+02 -6.698e+02 3.404e+02 -1.920e+02 7.960e+02
1.090e+02 -6.658e+02 3.379e+02 -1.916e+02 7.933e+02
1.100e+02 -6.618e+02 3.354e+02 -1.912e+02 7.907e+02
1.110e+02 -6.580e+02 3.329e+02 -1.908e+02 7.882e+02
1.120e+02 -6.543e+02 3.305e+02 -1.903e+02 7.859e+02
1.130e+02 -6.506e+02 3.280e+02 -1.899e+02 7.836e+02
1.140e+02 -6.470e+02 3.255e+02 -1.895e+02 7.814e+02
1.150e+02 -6.434e+02 3.232e+02 -1.890e+02 7.794e+02
1.160e+02 -6.400e+02 3.211e+02 -1.886e+02 7.774e+02
1.170e+02 -6.367e+02 3.189e+02 -1.881e+02 7.755e+02
1.180e+02 -6.334e+02 3.167e+02 -1.876e+02 7.737e+02
1.190e+02 -6.302e+02 3.145e+02 -1.872e+02 7.719e+02
1.200e+02 -6.271e+02 3.123e+02 -1.867e+02 7.703e+02
1.210e+02 -6.241e+02 3.101e+02 -1.862e+02 7.687e+02
1.220e+02 -6.211e+02 3.079e+02 -1.858e+02 7.671e+02
1.230e+02 -6.182e+02 3.058e+02 -1.853e+02 7.656e+02
1.240e+02 -6.154e+02 3.035e+02 -1.848e+02 7.642e+02
1.250e+02 -6.125e+02 3.015e+02 -1.844e+02 7.628e+02
1.260e+02 -6.099e+02 2.995e+02 -1.839e+02 7.614e+02
1.270e+02 -6.072e+02 2.976e+02 -1.834e+02 7.601e+02
1.280e+02 -6.046e+02 2.956e+02 -1.830e+02 7.588e+02
1.290e+02 -6.021e+02 2.938e+02 -1.825e+02 7.575e+02
1.300e+02 -5.995e+02 2.918e+02 -1.820e+02 7.562e+02
1.310e+02 -5.970e+02 2.899e+02 -1.816e+02 7.549e+02
1.320e+02 -5.945e+02 2.880e+02 -1.812e+02 7.537e+02
1.330e+02 -5.922e+02 2.861e+02 -1.807e+02 7.524e+02
1.340e+02 -5.898e+02 2.842e+02 -1.802e+02 7.511e+02
1.350e+02 -5.875e+02 2.823e+02 -1.798e+02 7.498e+02
1.360e+02 -5.852e+02 2.804e+02 -1.793e+02 7.486e+02
1.370e+02 -5.829e+02 2.786e+02 -1.789e+02 7.473e+02
1.380e+02 -5.806e+02 2.769e+02 -1.784e+02 7.459e+02
1.390e+02 -5.783e+02 2.753e+02 -1.780e+02 7.446e+02
1.400e+02 -5.761e+02 2.735e+02 -1.776e+02 7.433e+02
1.410e+02 -5.738e+02 2.719e+02 -1.771e+02 7.419e+02
1.420e+02 -5.717e+02 2.703e+02 -1.767e+02 7.405e+02
1.430e+02 -5.695e+02 2.686e+02 -1.763e+02 7.391e+02
1.440e+02 -5.674e+02 2.669e+02 -1.758e+02 7.376e+02
1.450e+02 -5.653e+02 2.653e+02 -1.754e+02 7.361e+02
1.460e+02 -5.632e+02 2.636e+02 -1.750e+02 7.346e+02
1.470e+02 -5.611e+02 2.620e+02 -1.746e+02 7.331e+02
1.480e+02 -5.590e+02 2.605e+02 -1.742e+02 7.316e+02
1.490e+02 -5.569e+02 2.588e+02 -1.738e+02 7.300e+02
1.500e+02 -5.548e+02 2.572e+02 -1.734e+02 7.284e+02
1.510e+02 -5.528e+02 2.557e+02 -1.730e+02 7.267e+02
1.520e+02 -5.507e+02 2.543e+02 -1.726e+02 7.251e+02
1.530e+02 -5.487e+02 2.529e+02 -1.722e+02 7.234e+02
1.540e+02 -5.467e+02 2.514e+02 -1.718e+02 7.217e+02
1.550e+02 -5.446e+02 2.500e+02 -1.714e+02 7.199e+02
1.560e+02 -5.426e+02 2.486e+02 -1.710e+02 7.182e+02
1.570e+02 -5.407e+02 2.471e+02 -1.707e+02 7.164e+02
1.580e+02 -5.387e+02 2.457e+02 -1.703e+02 7.147e+02
1.590e+02 -5.368e+02 2.444e+02 -1.699e+02 7.129e+02
1.600e+02 -5.349e+02 2.429e+02 -1.696e+02 7.110e+02
1.610e+02 -5.330e+02 2.415e+02 -1.692e+02 7.092e+02
1.620e+02 -5.312e+02 2.402e+02 -1.689e+02 7.074e+02
1.630e+02 -5.293e+02 2.388e+02 -1.685e+02 7.055e+02
1.640e+02 -5.274e+02 2.374e+02 -1.682e+02 7.037e+02
1.650e+02 -5.256e+02 2.361e+02 -1.679e+02 7.018e+02
1.660e+02 -5.238e+02 2.348e+02 -1.676e+02 7.000e+02
1.670e+02 -5.220e+02 2.336e+02 -1.672e+02 6.981e+02
1.680e+02 -5.202e+02 2.324e+02 -1.669e+02 6.963e+02
1.690e+02 -5.185e+02 2.311e+02 -1.666e+02 6.944e+02
1.700e+02 -5.167e+02 2.299e+02 -1.663e+02 6.926e+02
1.710e+02 -5.150e+02 2.287e+02 -1.660e+02 6.907e+02
1.720e+02 -5.133e+02 2.275e+02 -1.658e+02 6.889e+02
1.730e+02 -5.116e+02 2.262e+02 -1.655e+02 6.871e+02
1.740e+02 -5.100e+02 2.250e+02 -1.652e+02 6.853e+02
1.750e+02 -5.083e+02 2.239e+02 -1.649e+02 6.835e+02
1.760e+02 -5.067e+02 2.243e+02 -1.647e+02 6.817e+02
1.770e+02 -5.051e+02 2.281e+02 -1.644e+02 6.799e+02
1.780e+02 -5.035e+02 2.320e+02 -1.642e+02 6.781e+02
1.790e+02 -5.019e+02 2.358e+02 -1.639e+02 6.764e+02
1.800e+02 -5.004e+02 2.398e+02 -1.637e+02 6.746e+02
1.810e+02 -4.988e+02 2.438e+02 -1.634e+02 6.729e+02
1.820e+02 -4.973e+02 2.478e+02 -1.632e+02 6.712e+02
1.830e+02 -4.958e+02 2.518e+02 -1.630e+02 6.695e+02
1.840e+02 -4.944e+02 2.560e+02 -1.628e+02 6.678e+02
1.850e+02 -4.929e+02 2.602e+02 -1.626e+02 6.662e+02
1.860e+02 -4.915e+02 2.644e+02 -1.624e+02 6.646e+02
1.870e+02 -4.901e+02 2.686e+02 -1.622e+02 6.630e+02
1.880e+02 -4.888e+02 2.730e+02 -1.621e+02 6.614e+02
1.890e+02 -4.874e+02 2.773e+02 -1.619e+02 6.598e+02
1.900e+02 -4.861e+02 2.817e+02 -1.618e+02 6.582e+02
